#All auto  1.9 GeV runs
#Total Events: Para: 2424982016.000000	 Perp: 2657795840.000000
#Bad Edge Events: Para: 413740653	 Perp: 103442540
#Bad Edge Fraction: Para: 0.17	 Perp: 0.04
##Here are the runs used to make this mean polarization:
##48088
#48089
#48090
#48091
#48093
#48095
#48096
#48098
#48099
#48100
###48102
#48103
#48104
#48105
#48107
#48108
#48109
#48110
#48114
#48115
###48119
#48120
#48126
###48128
###48129
#48131
#48132
#48134
#48135
#48137
###48139
###48143
###48145
#48146
#48148
#48149
#48150
#48152
#48153
#48154
###48156
#48157
#48158
#48159
#48163
#48165
#48166
###48168
#48171
#48172
#48176
#48178
#48179
#48181
#48182
#48185
#48186
#48187
#48189
#48190
#48191
#48192
###48194
#48195
#48196
###48198
#48199
#48200
#E_ID	E_g(GeV)	MeanPol
#		Para	perp	
1	4341.8	0.000	0.000
2	4333.8	0.000	0.000
3	4326.2	0.000	0.000
4	4319.0	0.000	0.000
5	4311.6	0.000	0.000
6	4304.0	0.000	0.000
7	4296.5	0.000	0.000
8	4288.8	0.000	0.000
9	4281.1	0.000	0.000
10	4273.2	0.000	0.000
11	4265.1	0.000	0.000
12	4256.9	0.000	0.000
13	4248.6	0.000	0.000
14	4240.1	0.000	0.000
15	4231.6	0.000	0.000
16	4223.1	0.000	0.000
17	4214.6	0.000	0.000
18	4206.0	0.000	0.000
19	4197.3	0.000	0.000
20	4188.6	0.000	0.000
21	4180.0	0.000	0.000
22	4171.2	0.000	0.000
23	4162.5	0.000	0.000
24	4153.8	0.000	0.000
25	4145.1	0.000	0.000
26	4136.3	0.000	0.000
27	4127.5	0.000	0.000
28	4118.8	0.000	0.000
29	4110.1	0.000	0.000
30	4101.2	0.000	0.000
31	4092.4	0.000	0.000
32	4083.7	0.000	0.000
33	4074.9	0.013	0.008
34	4066.1	0.026	0.026
35	4057.2	0.023	0.024
36	4048.4	0.021	0.021
37	4039.6	0.018	0.019
38	4030.9	0.010	0.011
39	4022.0	0.009	0.010
40	4013.1	0.009	0.009
41	4004.2	0.008	0.008
42	3995.4	0.004	0.004
43	3986.7	-0.111	-0.110
44	3977.9	-0.106	-0.106
45	3969.1	-0.101	-0.101
46	3960.3	-0.096	-0.096
47	3951.4	-0.091	-0.091
48	3942.4	-0.086	-0.085
49	3933.6	-0.059	-0.057
50	3924.9	-0.053	-0.053
51	3916.1	-0.050	-0.050
52	3907.2	-0.048	-0.048
53	3898.4	-0.045	-0.045
54	3889.6	-0.042	-0.042
55	3880.7	-0.038	-0.035
56	3871.7	-0.016	-0.007
57	3862.9	0.003	0.002
58	3854.1	0.004	0.003
59	3845.2	0.005	0.003
60	3836.4	0.005	0.004
61	3827.5	0.005	0.004
62	3818.7	0.005	0.004
63	3809.8	0.006	0.006
64	3801.0	0.010	0.015
65	3792.1	0.022	0.029
66	3783.2	0.033	0.035
67	3774.2	0.037	0.035
68	3765.4	0.036	0.034
69	3756.6	0.034	0.032
70	3747.9	0.033	0.030
71	3739.0	0.031	0.029
72	3730.1	0.029	0.027
73	3721.2	0.028	0.026
74	3712.4	0.026	0.024
75	3703.5	0.024	0.023
76	3694.6	0.023	0.021
77	3685.8	0.021	0.020
78	3676.9	0.020	0.018
79	3668.1	0.018	0.017
80	3659.1	0.017	0.016
81	3650.2	0.016	0.014
82	3641.5	0.014	0.013
83	3632.7	0.013	0.012
84	3623.8	0.012	0.011
85	3615.0	0.011	0.010
86	3606.2	0.010	0.009
87	3597.3	0.009	0.009
88	3588.4	0.009	0.008
89	3579.5	0.008	0.007
90	3570.7	0.007	0.006
91	3561.8	0.006	0.006
92	3553.0	0.006	0.005
93	3544.1	0.005	0.005
94	3535.3	0.005	0.004
95	3526.4	0.004	0.004
96	3517.5	0.004	0.004
97	3508.6	0.004	0.003
98	3499.7	0.003	0.003
99	3490.9	0.003	0.003
100	3482.1	0.003	0.002
101	3473.3	0.002	0.002
102	3464.4	0.002	0.002
103	3455.6	0.002	0.002
104	3446.7	0.002	0.002
105	3437.8	0.002	0.001
106	3429.0	0.001	0.001
107	3420.1	0.003	0.001
108	3411.3	0.005	0.001
109	3402.4	0.009	0.002
110	3393.6	0.015	0.004
111	3384.7	0.024	0.008
112	3375.8	0.034	0.014
113	3367.0	0.045	0.022
114	3358.1	0.056	0.033
115	3349.2	0.064	0.045
116	3340.4	0.069	0.057
117	3331.6	0.072	0.066
118	3322.7	0.072	0.073
119	3313.9	0.070	0.076
120	3305.0	0.067	0.076
121	3296.0	0.064	0.075
122	3287.1	0.061	0.072
123	3278.3	0.058	0.068
124	3269.5	0.055	0.064
125	3260.7	0.052	0.061
126	3251.8	0.049	0.057
127	3242.9	0.046	0.054
128	3234.0	0.043	0.051
129	3225.2	0.040	0.048
130	3216.4	0.038	0.045
131	3207.5	0.035	0.042
132	3198.6	0.033	0.040
133	3189.7	0.031	0.037
134	3180.9	0.029	0.035
135	3172.0	0.027	0.032
136	3163.2	0.028	0.030
137	3154.3	0.030	0.028
138	3145.4	0.036	0.027
139	3136.5	0.046	0.028
140	3127.7	0.061	0.032
141	3118.8	0.080	0.040
142	3110.0	0.103	0.053
143	3101.1	0.127	0.071
144	3092.2	0.149	0.094
145	3083.4	0.167	0.119
146	3074.5	0.180	0.144
147	3065.6	0.188	0.167
148	3056.7	0.191	0.185
149	3047.8	0.191	0.196
150	3038.9	0.188	0.201
151	3030.1	0.183	0.202
152	3021.2	0.177	0.199
153	3012.3	0.170	0.194
154	3003.4	0.163	0.187
155	2994.4	0.156	0.179
156	2985.4	0.150	0.172
157	2976.5	0.143	0.164
158	2967.8	0.136	0.157
159	2959.0	0.130	0.150
160	2950.1	0.123	0.143
161	2941.3	0.117	0.136
162	2932.4	0.111	0.130
163	2923.5	0.106	0.124
164	2914.6	0.100	0.117
165	2905.8	0.095	0.111
166	2896.9	0.090	0.106
167	2888.0	0.085	0.100
168	2879.2	0.080	0.095
169	2870.3	0.076	0.090
170	2861.4	0.071	0.085
171	2852.5	0.067	0.080
172	2843.6	0.063	0.075
173	2834.8	0.059	0.071
174	2825.9	0.056	0.067
175	2817.0	0.052	0.063
176	2808.1	0.049	0.059
177	2799.2	0.046	0.055
178	2790.3	0.043	0.052
179	2781.5	0.040	0.049
180	2772.6	0.038	0.046
181	2763.7	0.035	0.043
182	2754.9	0.034	0.040
183	2746.0	0.039	0.038
184	2737.1	0.050	0.035
185	2728.2	0.068	0.034
186	2719.3	0.092	0.039
187	2710.4	0.125	0.051
188	2701.6	0.169	0.071
189	2692.7	0.221	0.097
190	2683.8	0.274	0.136
191	2674.9	0.323	0.186
192	2666.1	0.364	0.239
193	2657.2	0.396	0.296
194	2648.3	0.418	0.349
195	2639.4	0.431	0.392
196	2630.5	0.440	0.422
197	2621.7	0.443	0.442
198	2612.8	0.442	0.455
199	2603.9	0.438	0.459
200	2595.0	0.432	0.459
201	2586.1	0.423	0.456
202	2577.3	0.415	0.449
203	2568.4	0.405	0.440
204	2559.5	0.396	0.431
205	2550.6	0.386	0.421
206	2541.7	0.376	0.411
207	2532.8	0.365	0.401
208	2523.9	0.355	0.390
209	2514.9	0.344	0.379
210	2506.0	0.333	0.369
211	2497.2	0.323	0.358
212	2488.4	0.312	0.348
213	2479.6	0.302	0.337
214	2470.7	0.291	0.326
215	2461.8	0.280	0.315
216	2452.9	0.270	0.305
217	2444.0	0.259	0.294
218	2435.1	0.249	0.283
219	2426.2	0.239	0.273
220	2417.4	0.229	0.262
221	2408.5	0.219	0.252
222	2399.6	0.210	0.241
223	2390.7	0.200	0.231
224	2381.8	0.191	0.221
225	2373.0	0.182	0.211
226	2364.1	0.173	0.202
227	2355.2	0.164	0.192
228	2346.3	0.156	0.183
229	2337.4	0.148	0.174
230	2328.6	0.140	0.165
231	2319.7	0.132	0.157
232	2310.8	0.125	0.149
233	2301.9	0.118	0.140
234	2293.0	0.111	0.133
235	2284.2	0.104	0.125
236	2275.3	0.098	0.118
237	2266.4	0.092	0.111
238	2257.5	0.087	0.105
239	2248.6	0.081	0.099
240	2239.8	0.076	0.092
241	2230.9	0.071	0.087
242	2222.0	0.066	0.081
243	2213.0	0.062	0.076
244	2204.2	0.058	0.071
245	2195.3	0.054	0.066
246	2186.4	0.050	0.062
247	2177.5	0.046	0.057
248	2168.6	0.043	0.053
249	2159.7	0.040	0.050
250	2150.8	0.037	0.046
251	2141.9	0.034	0.043
252	2133.0	0.032	0.040
253	2124.1	0.029	0.037
254	2115.2	0.027	0.034
255	2106.3	0.025	0.031
256	2097.4	0.023	0.029
257	2088.5	0.021	0.027
258	2079.5	0.019	0.024
259	2070.6	0.018	0.023
260	2061.7	0.016	0.021
261	2052.7	0.015	0.019
262	2043.8	0.014	0.017
263	2034.9	0.012	0.016
264	2025.9	0.011	0.015
265	2017.0	0.010	0.013
266	2008.1	0.009	0.012
267	1999.1	0.009	0.011
268	1990.2	0.009	0.010
269	1981.2	0.010	0.009
270	1972.3	0.028	0.009
271	1963.4	0.072	0.008
272	1954.4	0.124	0.008
273	1945.5	0.179	0.024
274	1936.6	0.253	0.072
275	1927.7	0.361	0.138
276	1918.7	0.477	0.203
277	1909.8	0.587	0.268
278	1900.9	0.664	0.394
279	1892.0	0.713	0.533
280	1883.0	0.741	0.641
281	1874.1	0.760	0.712
282	1865.1	0.779	0.754
283	1856.2	0.790	0.780
284	1847.3	0.796	0.796
285	1838.3	0.798	0.803
286	1829.4	0.798	0.807
287	1820.5	0.795	0.808
288	1811.5	0.791	0.807
289	1802.6	0.786	0.804
290	1793.7	0.781	0.801
291	1784.7	0.776	0.796
292	1775.8	0.769	0.790
293	1766.9	0.763	0.785
294	1757.9	0.756	0.779
295	1749.0	0.749	0.772
296	1740.1	0.741	0.766
297	1731.1	0.733	0.759
298	1722.2	0.724	0.751
299	1713.2	0.715	0.743
300	1704.3	0.706	0.735
301	1695.4	0.696	0.726
302	1686.5	0.686	0.717
303	1677.5	0.675	0.708
304	1668.5	0.664	0.698
305	1659.5	0.652	0.687
306	1650.5	0.640	0.676
307	1641.5	0.627	0.664
308	1632.6	0.614	0.652
309	1623.7	0.601	0.640
310	1614.8	0.587	0.627
311	1605.8	0.572	0.614
312	1596.9	0.557	0.600
313	1588.0	0.542	0.586
314	1579.0	0.527	0.571
315	1570.0	0.510	0.556
316	1561.1	0.494	0.540
317	1552.1	0.477	0.524
318	1543.2	0.461	0.508
319	1534.3	0.444	0.491
320	1525.3	0.426	0.474
321	1516.4	0.409	0.457
322	1507.4	0.391	0.439
323	1498.5	0.374	0.422
324	1489.5	0.356	0.404
325	1480.6	0.339	0.386
326	1471.6	0.321	0.368
327	1462.7	0.305	0.351
328	1453.7	0.287	0.332
329	1444.7	0.271	0.315
330	1435.8	0.254	0.298
331	1426.9	0.239	0.281
332	1417.9	0.223	0.264
333	1408.9	0.208	0.247
334	1400.0	0.194	0.231
335	1391.0	0.180	0.216
336	1382.1	0.167	0.201
337	1373.1	0.154	0.186
338	1364.2	0.142	0.173
339	1355.2	0.130	0.159
340	1346.3	0.119	0.147
341	1337.3	0.109	0.135
342	1328.4	0.099	0.123
343	1319.4	0.090	0.113
344	1310.5	0.082	0.103
345	1301.5	0.074	0.093
346	1292.5	0.067	0.085
347	1283.6	0.060	0.076
348	1274.6	0.054	0.069
349	1265.6	0.048	0.062
350	1256.7	0.043	0.055
351	1247.7	0.038	0.050
352	1238.8	0.034	0.044
353	1229.8	0.030	0.039
354	1220.9	0.027	0.035
355	1211.8	0.024	0.031
356	1202.8	0.021	0.027
357	1193.9	0.018	0.024
358	1184.9	0.016	0.021
359	1175.9	0.014	0.019
360	1166.9	0.012	0.016
361	1158.0	0.011	0.014
362	1149.0	0.009	0.012
363	1140.0	0.008	0.011
364	1131.0	0.007	0.009
365	1122.1	0.006	0.008
366	1113.2	0.005	0.007
367	1104.2	0.004	0.006
368	1095.2	0.004	0.005
369	1086.2	0.003	0.004
370	1077.2	0.003	0.004
371	1068.3	0.002	0.003
372	1059.3	0.002	0.003
373	1050.4	0.002	0.002
374	1041.4	0.001	0.002
375	1032.5	0.001	0.002
376	1023.5	0.001	0.002
377	1014.6	0.001	0.001
378	1005.6	0.001	0.001
379	996.7	0.001	0.001
380	987.7	0.000	0.001
381	978.8	0.000	0.001
382	969.8	0.000	0.000
383	960.2	0.000	0.000
384	949.9	0.000	0.000
